time,temperature,conversion
2008.002,403.2168,0
2008.098,403.2212,1.35E-07
2008.2,403.2267,2.83E-07
2008.302,403.2321,4.37E-07
2008.398,403.2369,5.87E-07
2008.5,403.2417,7.48E-07
2008.602,403.2471,9.10E-07
2008.698,403.2521,1.06E-06
2008.8,403.2565,1.23E-06
2008.902,403.2616,1.41E-06
2008.998,403.2665,1.58E-06
2009.1,403.2719,1.77E-06
2009.202,403.2769,1.97E-06
2009.298,403.2815,2.15E-06
2009.4,403.2867,2.34E-06
2009.502,403.2916,2.54E-06
2009.598,403.2973,2.72E-06
2009.7,403.3011,2.91E-06
2009.802,403.3073,3.10E-06
2009.898,403.3117,3.28E-06
2010,403.3172,3.47E-06
2010.102,403.3224,3.67E-06
2010.198,403.3266,3.87E-06
2010.3,403.3326,4.10E-06
2010.402,403.3372,4.33E-06
2010.498,403.3418,4.55E-06
2010.6,403.3466,4.79E-06
2010.702,403.352,5.03E-06
2010.798,403.3569,5.26E-06
2010.9,403.3616,5.50E-06
2011.002,403.3672,5.74E-06
2011.098,403.3722,5.98E-06
2011.2,403.3771,6.24E-06
2011.302,403.3819,6.50E-06
2011.398,403.3874,6.75E-06
2011.5,403.3917,7.01E-06
2011.602,403.3971,7.27E-06
2011.698,403.4026,7.52E-06
2011.8,403.4071,7.78E-06
2011.902,403.4113,8.05E-06
2011.998,403.4166,8.32E-06
2012.1,403.4216,8.60E-06
2012.202,403.4267,8.89E-06
2012.298,403.432,9.17E-06
2012.4,403.4371,9.46E-06
2012.502,403.4422,9.74E-06
2012.598,403.4475,1.00E-05
2012.7,403.4525,1.03E-05
2012.802,403.4573,1.06E-05
2012.898,403.462,1.09E-05
2013,403.4668,1.12E-05
2013.102,403.4726,1.14E-05
2013.198,403.4777,1.17E-05
2013.3,403.4819,1.20E-05
2013.402,403.4871,1.23E-05
2013.498,403.4913,1.26E-05
2013.6,403.4977,1.29E-05
2013.702,403.502,1.32E-05
2013.798,403.5068,1.35E-05
2013.9,403.5117,1.38E-05
2014.002,403.5176,1.41E-05
2014.098,403.5215,1.44E-05
2014.2,403.5273,1.48E-05
2014.302,403.5316,1.51E-05
2014.398,403.5365,1.54E-05
2014.5,403.5415,1.57E-05
2014.602,403.5467,1.60E-05
2014.698,403.5518,1.63E-05
2014.8,403.5557,1.66E-05
2014.902,403.5619,1.69E-05
2014.998,403.5669,1.72E-05
2015.1,403.5722,1.75E-05
2015.202,403.576,1.78E-05
2015.298,403.5809,1.81E-05
2015.4,403.5863,1.85E-05
2015.502,403.5909,1.88E-05
2015.598,403.5973,1.91E-05
2015.7,403.6026,1.95E-05
2015.802,403.6066,1.98E-05
2015.898,403.6116,2.01E-05
2016,403.6168,2.05E-05
2016.102,403.6218,2.08E-05
2016.198,403.6269,2.12E-05
2016.3,403.6316,2.15E-05
2016.402,403.6369,2.19E-05
2016.498,403.6415,2.22E-05
2016.6,403.6467,2.26E-05
2016.702,403.6519,2.29E-05
2016.798,403.6571,2.33E-05
2016.9,403.6625,2.36E-05
2017.002,403.6668,2.40E-05
2017.098,403.6718,2.44E-05
2017.2,403.6768,2.47E-05
2017.302,403.6817,2.51E-05
2017.398,403.6865,2.55E-05
2017.5,403.6923,2.58E-05
2017.602,403.6967,2.62E-05
2017.698,403.7016,2.66E-05
2017.8,403.7071,2.70E-05
2017.902,403.7122,2.73E-05
2017.998,403.7179,2.77E-05
2018.1,403.7226,2.81E-05
2018.202,403.7279,2.85E-05
2018.298,403.7325,2.89E-05
2018.4,403.737,2.93E-05
2018.502,403.7428,2.97E-05
2018.598,403.7477,3.01E-05
2018.7,403.7524,3.05E-05
2018.802,403.7573,3.09E-05
2018.898,403.7626,3.12E-05
2019,403.7667,3.16E-05
2019.102,403.772,3.21E-05
2019.198,403.7776,3.24E-05
2019.3,403.7817,3.28E-05
2019.402,403.7876,3.32E-05
2019.498,403.792,3.36E-05
2019.6,403.7975,3.40E-05
2019.702,403.8023,3.44E-05
2019.798,403.8074,3.47E-05
2019.9,403.8117,3.51E-05
2020.002,403.8167,3.55E-05
2020.098,403.8217,3.59E-05
2020.2,403.8271,3.63E-05
2020.302,403.8318,3.67E-05
2020.398,403.8377,3.71E-05
2020.5,403.8422,3.76E-05
2020.602,403.8472,3.80E-05
2020.698,403.8521,3.84E-05
2020.8,403.8571,3.89E-05
2020.902,403.8634,3.94E-05
2020.998,403.867,3.98E-05
2021.1,403.8725,4.02E-05
2021.202,403.8769,4.07E-05
2021.298,403.8826,4.12E-05
2021.4,403.8871,4.16E-05
2021.502,403.8915,4.21E-05
2021.598,403.898,4.26E-05
2021.7,403.902,4.31E-05
2021.802,403.9079,4.36E-05
2021.898,403.9119,4.40E-05
2022,403.9172,4.45E-05
2022.102,403.9224,4.50E-05
2022.198,403.9279,4.55E-05
2022.3,403.9323,4.60E-05
2022.402,403.9376,4.65E-05
2022.498,403.9424,4.70E-05
2022.6,403.9475,4.76E-05
2022.702,403.9521,4.81E-05
2022.798,403.9572,4.86E-05
2022.9,403.9625,4.92E-05
2023.002,403.9676,4.97E-05
2023.098,403.9713,5.03E-05
2023.2,403.9771,5.08E-05
2023.302,403.9824,5.14E-05
2023.398,403.9873,5.19E-05
2023.5,403.9927,5.25E-05
2023.602,403.9969,5.30E-05
2023.698,404.0024,5.35E-05
2023.8,404.0069,5.41E-05
2023.902,404.0127,5.46E-05
2023.998,404.0168,5.51E-05
2024.1,404.0224,5.57E-05
2024.202,404.0279,5.62E-05
2024.298,404.0321,5.68E-05
2024.4,404.0373,5.73E-05
2024.502,404.0425,5.79E-05
2024.598,404.0473,5.85E-05
2024.7,404.0526,5.91E-05
2024.802,404.0578,5.97E-05
2024.898,404.0625,6.03E-05
2025,404.0664,6.09E-05
2025.102,404.0729,6.15E-05
2025.198,404.0769,6.21E-05
2025.3,404.0826,6.27E-05
2025.402,404.0866,6.33E-05
2025.498,404.0921,6.39E-05
2025.6,404.0975,6.45E-05
2025.702,404.102,6.52E-05
2025.798,404.1067,6.58E-05
2025.9,404.1119,6.64E-05
2026.002,404.1172,6.70E-05
2026.098,404.1215,6.76E-05
2026.2,404.1275,6.82E-05
2026.302,404.1325,6.88E-05
2026.398,404.137,6.94E-05
2026.5,404.1421,7.00E-05
2026.602,404.1472,7.06E-05
2026.698,404.153,7.12E-05
2026.8,404.156,7.18E-05
2026.902,404.1622,7.25E-05
2026.998,404.1671,7.31E-05
2027.1,404.1719,7.37E-05
2027.202,404.1767,7.43E-05
2027.298,404.1818,7.49E-05
2027.4,404.1875,7.56E-05
2027.502,404.1919,7.62E-05
2027.598,404.1971,7.68E-05
2027.7,404.202,7.75E-05
2027.802,404.2069,7.81E-05
2027.898,404.2125,7.87E-05
2028,404.2173,7.94E-05
2028.102,404.2221,8.00E-05
2028.198,404.2279,8.06E-05
2028.3,404.2326,8.13E-05
2028.402,404.237,8.19E-05
2028.498,404.2421,8.25E-05
2028.6,404.2474,8.32E-05
2028.702,404.2523,8.39E-05
2028.798,404.2578,8.45E-05
2028.9,404.2632,8.51E-05
2029.002,404.2677,8.58E-05
2029.098,404.2726,8.65E-05
2029.2,404.278,8.71E-05
2029.302,404.2823,8.78E-05
2029.398,404.2879,8.84E-05
2029.5,404.2925,8.91E-05
2029.602,404.2969,8.98E-05
2029.698,404.3028,9.04E-05
2029.8,404.3068,9.11E-05
2029.902,404.3131,9.18E-05
2029.998,404.3177,9.25E-05
2030.1,404.3227,9.32E-05
2030.202,404.3268,9.39E-05
2030.298,404.3324,9.45E-05
2030.4,404.3369,9.52E-05
2030.502,404.3419,9.59E-05
2030.598,404.347,9.66E-05
2030.7,404.3516,9.73E-05
2030.802,404.3566,9.80E-05
2030.898,404.3625,9.87E-05
2031,404.3664,9.94E-05
2031.102,404.3715,1.00E-04
2031.198,404.377,1.01E-04
2031.3,404.3819,1.01E-04
2031.402,404.387,1.02E-04
2031.498,404.3922,1.03E-04
2031.6,404.3973,1.03E-04
2031.702,404.4016,1.04E-04
2031.798,404.4073,1.05E-04
2031.9,404.4126,1.06E-04
2032.002,404.4174,1.06E-04
2032.098,404.4228,1.07E-04
2032.2,404.4279,1.08E-04
2032.302,404.4326,1.08E-04
2032.398,404.4372,1.09E-04
2032.5,404.443,1.10E-04
2032.602,404.4469,1.10E-04
2032.698,404.4522,1.11E-04
2032.8,404.4573,1.12E-04
2032.902,404.4621,1.13E-04
2032.998,404.4666,1.13E-04
2033.1,404.4718,1.14E-04
2033.202,404.4778,1.15E-04
2033.298,404.4828,1.15E-04
2033.4,404.4869,1.16E-04
2033.502,404.4925,1.17E-04
2033.598,404.4975,1.17E-04
2033.7,404.503,1.18E-04
2033.802,404.508,1.19E-04
2033.898,404.5123,1.19E-04
2034,404.5164,1.20E-04
2034.102,404.522,1.21E-04
2034.198,404.5279,1.22E-04
2034.3,404.5319,1.22E-04
2034.402,404.5373,1.23E-04
2034.498,404.5427,1.24E-04
2034.6,404.5463,1.25E-04
2034.702,404.5519,1.25E-04
2034.798,404.5572,1.26E-04
2034.9,404.5619,1.27E-04
2035.002,404.5672,1.28E-04
2035.098,404.5722,1.28E-04
2035.2,404.5776,1.29E-04
2035.302,404.5827,1.30E-04
2035.398,404.5879,1.30E-04
2035.5,404.5924,1.31E-04
2035.602,404.5969,1.32E-04
2035.698,404.6027,1.33E-04
2035.8,404.6082,1.33E-04
2035.902,404.6129,1.34E-04
2035.998,404.6177,1.35E-04
2036.1,404.6222,1.36E-04
2036.202,404.6281,1.37E-04
2036.298,404.6321,1.37E-04
2036.4,404.6369,1.38E-04
2036.502,404.6419,1.39E-04
2036.598,404.6472,1.40E-04
2036.7,404.6522,1.40E-04
2036.802,404.6568,1.41E-04
2036.898,404.6617,1.42E-04
2037,404.6666,1.43E-04
2037.102,404.6719,1.44E-04
2037.198,404.6762,1.45E-04
2037.3,404.6821,1.45E-04
2037.402,404.6869,1.46E-04
2037.498,404.6925,1.47E-04
2037.6,404.6979,1.48E-04
2037.702,404.7025,1.49E-04
2037.798,404.7069,1.50E-04
2037.9,404.7116,1.51E-04
2038.002,404.7167,1.51E-04
2038.098,404.7215,1.52E-04
2038.2,404.727,1.53E-04
2038.302,404.7321,1.54E-04
2038.398,404.7372,1.55E-04
2038.5,404.7416,1.56E-04
2038.602,404.7477,1.57E-04
2038.698,404.7528,1.58E-04
2038.8,404.758,1.58E-04
2038.902,404.7614,1.59E-04
2038.998,404.767,1.60E-04
2039.1,404.7725,1.61E-04
2039.202,404.7777,1.62E-04
2039.298,404.7819,1.63E-04
2039.4,404.787,1.64E-04
2039.502,404.7923,1.65E-04
2039.598,404.7972,1.66E-04
2039.7,404.8021,1.67E-04
2039.802,404.8068,1.68E-04
2039.898,404.8121,1.68E-04
2040,404.8171,1.69E-04
2040.102,404.8225,1.70E-04
2040.198,404.8263,1.71E-04
2040.3,404.8321,1.72E-04
2040.402,404.8376,1.73E-04
2040.498,404.8407,1.74E-04
2040.6,404.8465,1.75E-04
2040.702,404.8522,1.76E-04
2040.798,404.8574,1.77E-04
2040.9,404.8622,1.78E-04
2041.002,404.8675,1.80E-04
2041.098,404.8724,1.81E-04
2041.2,404.8771,1.82E-04
2041.302,404.8822,1.83E-04
2041.398,404.8873,1.84E-04
2041.5,404.8919,1.85E-04
2041.602,404.8968,1.86E-04
2041.698,404.9019,1.87E-04
2041.8,404.9075,1.88E-04
2041.902,404.912,1.89E-04
2041.998,404.9165,1.90E-04
2042.1,404.922,1.92E-04
2042.202,404.9272,1.93E-04
2042.298,404.9322,1.94E-04
2042.4,404.9374,1.95E-04
2042.502,404.9416,1.96E-04
2042.598,404.9464,1.97E-04
2042.7,404.9517,1.99E-04
2042.802,404.9574,2.00E-04
2042.898,404.9628,2.01E-04
2043,404.9661,2.02E-04
2043.102,404.9715,2.03E-04
2043.198,404.9768,2.05E-04
2043.3,404.9819,2.06E-04
2043.402,404.9866,2.07E-04
2043.498,404.9919,2.08E-04
2043.6,404.9967,2.10E-04
2043.702,405.0022,2.11E-04
2043.798,405.006,2.12E-04
2043.9,405.0116,2.13E-04
2044.002,405.0169,2.15E-04
2044.098,405.0222,2.16E-04
2044.2,405.0273,2.17E-04
2044.302,405.0304,2.19E-04
2044.398,405.036,2.20E-04
2044.5,405.042,2.21E-04
2044.602,405.0463,2.23E-04
2044.698,405.0519,2.24E-04
2044.8,405.0565,2.25E-04
2044.902,405.0618,2.27E-04
2044.998,405.0659,2.28E-04
2045.1,405.0711,2.29E-04
2045.202,405.0772,2.31E-04
2045.298,405.0811,2.32E-04
2045.4,405.0868,2.34E-04
2045.502,405.0924,2.35E-04
2045.598,405.0973,2.37E-04
2045.7,405.1018,2.38E-04
2045.802,405.1069,2.40E-04
2045.898,405.1117,2.41E-04
2046,405.1167,2.43E-04
2046.102,405.1209,2.44E-04
2046.198,405.1266,2.46E-04
2046.3,405.1321,2.47E-04
2046.402,405.1367,2.49E-04
2046.498,405.1419,2.50E-04
2046.6,405.1469,2.52E-04
2046.702,405.1515,2.53E-04
2046.798,405.1567,2.55E-04
2046.9,405.1623,2.56E-04
2047.002,405.1666,2.58E-04
2047.098,405.1715,2.59E-04
2047.2,405.1766,2.61E-04
2047.302,405.1815,2.63E-04
2047.398,405.1867,2.64E-04
2047.5,405.1914,2.66E-04
2047.602,405.1959,2.67E-04
2047.698,405.2009,2.69E-04
2047.8,405.2069,2.71E-04
2047.902,405.2117,2.72E-04
2047.998,405.2169,2.74E-04
2048.1,405.2217,2.76E-04
2048.202,405.227,2.77E-04
2048.298,405.2317,2.79E-04
2048.4,405.2357,2.81E-04
2048.502,405.2417,2.83E-04
2048.598,405.2457,2.84E-04
2048.7,405.2519,2.86E-04
2048.802,405.2565,2.88E-04
2048.898,405.2613,2.90E-04
2049,405.2673,2.91E-04
2049.102,405.2713,2.93E-04
2049.198,405.2764,2.95E-04
2049.3,405.2811,2.97E-04
2049.402,405.286,2.99E-04
2049.498,405.2914,3.00E-04
2049.6,405.2956,3.02E-04
2049.702,405.3011,3.04E-04
2049.798,405.3061,3.06E-04
2049.9,405.312,3.08E-04
2050.002,405.3167,3.10E-04
2050.098,405.3215,3.12E-04
2050.2,405.3268,3.14E-04
2050.302,405.3304,3.16E-04
2050.398,405.3363,3.17E-04
2050.5,405.3415,3.19E-04
2050.602,405.3461,3.21E-04
2050.698,405.3511,3.23E-04
2050.8,405.357,3.25E-04
2050.902,405.3616,3.27E-04
2050.998,405.3663,3.29E-04
2051.1,405.3712,3.31E-04
2051.202,405.3765,3.33E-04
2051.298,405.3808,3.35E-04
2051.4,405.3854,3.37E-04
2051.502,405.3909,3.39E-04
2051.598,405.3964,3.41E-04
2051.7,405.4007,3.43E-04
2051.802,405.406,3.46E-04
2051.898,405.4114,3.48E-04
2052,405.416,3.50E-04
2052.102,405.4215,3.52E-04
2052.198,405.4277,3.54E-04
2052.3,405.4325,3.56E-04
2052.402,405.4358,3.58E-04
2052.498,405.4416,3.61E-04
2052.6,405.4475,3.63E-04
2052.702,405.452,3.65E-04
2052.798,405.4565,3.67E-04
2052.9,405.4622,3.69E-04
2053.002,405.4673,3.72E-04
2053.098,405.4714,3.74E-04
2053.2,405.4761,3.76E-04
2053.302,405.4814,3.78E-04
2053.398,405.4857,3.81E-04
2053.5,405.491,3.83E-04
2053.602,405.4959,3.85E-04
2053.698,405.5014,3.87E-04
2053.8,405.5061,3.90E-04
2053.902,405.5118,3.92E-04
2053.998,405.5156,3.94E-04
2054.1,405.5208,3.97E-04
2054.202,405.5258,3.99E-04
2054.298,405.5315,4.02E-04
2054.4,405.5369,4.04E-04
2054.502,405.5409,4.06E-04
2054.598,405.5463,4.09E-04
2054.7,405.5516,4.11E-04
2054.802,405.5562,4.14E-04
2054.898,405.5616,4.16E-04
2055,405.5673,4.18E-04
2055.102,405.5714,4.21E-04
2055.198,405.5758,4.23E-04
2055.3,405.5821,4.26E-04
2055.402,405.5864,4.28E-04
2055.498,405.5912,4.31E-04
2055.6,405.5964,4.33E-04
2055.702,405.6019,4.36E-04
2055.798,405.6063,4.38E-04
2055.9,405.6113,4.41E-04
2056.002,405.6164,4.43E-04
2056.098,405.6203,4.46E-04
2056.2,405.6262,4.49E-04
2056.302,405.6315,4.51E-04
2056.398,405.6354,4.54E-04
2056.5,405.641,4.56E-04
2056.602,405.6457,4.59E-04
2056.698,405.6507,4.61E-04
2056.8,405.6561,4.64E-04
2056.902,405.6614,4.67E-04
2056.998,405.6662,4.69E-04
2057.1,405.6722,4.72E-04
2057.202,405.6765,4.75E-04
2057.298,405.6814,4.77E-04
2057.4,405.687,4.80E-04
2057.502,405.6912,4.83E-04
2057.598,405.6966,4.85E-04
2057.7,405.7011,4.88E-04
2057.802,405.706,4.91E-04
2057.898,405.7114,4.93E-04
2058,405.716,4.96E-04
2058.102,405.7208,4.99E-04
2058.198,405.7266,5.02E-04
2058.3,405.7304,5.04E-04
2058.402,405.7363,5.07E-04
2058.498,405.7413,5.10E-04
2058.6,405.746,5.13E-04
2058.702,405.7515,5.15E-04
2058.798,405.7565,5.18E-04
2058.9,405.7608,5.21E-04
2059.002,405.766,5.24E-04
2059.098,405.7704,5.27E-04
2059.2,405.7762,5.30E-04
2059.302,405.7815,5.32E-04
2059.398,405.7866,5.35E-04
2059.5,405.7916,5.38E-04
2059.602,405.797,5.41E-04
2059.698,405.8013,5.44E-04
2059.8,405.8064,5.47E-04
2059.902,405.8116,5.50E-04
2059.998,405.8164,5.53E-04
2060.1,405.8209,5.56E-04
2060.202,405.8261,5.59E-04
2060.298,405.8306,5.61E-04
2060.4,405.8363,5.64E-04
2060.502,405.8413,5.68E-04
2060.598,405.8459,5.70E-04
2060.7,405.8513,5.73E-04
2060.802,405.8556,5.77E-04
2060.898,405.8617,5.79E-04
2061,405.8663,5.83E-04
2061.102,405.8715,5.86E-04
2061.198,405.8768,5.89E-04
2061.3,405.8812,5.92E-04
2061.402,405.8855,5.95E-04
2061.498,405.8903,5.98E-04
2061.6,405.8964,6.01E-04
2061.702,405.9015,6.04E-04
2061.798,405.9063,6.07E-04
2061.9,405.9106,6.11E-04
2062.002,405.9158,6.14E-04
2062.098,405.9211,6.17E-04
2062.2,405.9261,6.20E-04
2062.302,405.9309,6.23E-04
2062.398,405.9361,6.26E-04
2062.5,405.9404,6.30E-04
2062.602,405.9454,6.33E-04
2062.698,405.9509,6.36E-04
2062.8,405.9555,6.39E-04
2062.902,405.9614,6.43E-04
2062.998,405.9661,6.46E-04
2063.1,405.9708,6.49E-04
2063.202,405.9757,6.52E-04
2063.298,405.9803,6.56E-04
2063.4,405.9855,6.59E-04
2063.502,405.991,6.62E-04
2063.598,405.9961,6.65E-04
2063.7,406.0002,6.69E-04
2063.802,406.0062,6.72E-04
2063.898,406.0107,6.75E-04
2064,406.0159,6.79E-04
2064.102,406.0212,6.82E-04
2064.198,406.0258,6.85E-04
2064.3,406.0298,6.89E-04
2064.402,406.0349,6.92E-04
2064.498,406.0402,6.96E-04
2064.6,406.0457,6.99E-04
2064.702,406.0503,7.03E-04
2064.798,406.0555,7.06E-04
2064.9,406.0605,7.09E-04
2065.002,406.065,7.13E-04
2065.098,406.0704,7.16E-04
2065.2,406.0755,7.20E-04
2065.302,406.081,7.24E-04
2065.398,406.0852,7.27E-04
2065.5,406.0906,7.31E-04
2065.602,406.0962,7.34E-04
2065.698,406.101,7.38E-04
2065.8,406.106,7.41E-04
2065.902,406.1103,7.45E-04
2065.998,406.1163,7.48E-04
2066.1,406.1205,7.52E-04
2066.202,406.1257,7.56E-04
2066.298,406.1306,7.59E-04
2066.4,406.1354,7.63E-04
2066.502,406.1415,7.67E-04
2066.598,406.1449,7.70E-04
2066.7,406.1505,7.74E-04
2066.802,406.1562,7.78E-04
2066.898,406.1611,7.81E-04
2067,406.166,7.85E-04
2067.102,406.1709,7.89E-04
2067.198,406.1765,7.93E-04
2067.3,406.1811,7.96E-04
2067.402,406.186,8.00E-04
2067.498,406.1902,8.04E-04
2067.6,406.1955,8.08E-04
2067.702,406.2007,8.12E-04
2067.798,406.2059,8.15E-04
2067.9,406.2123,8.19E-04
2068.002,406.2165,8.23E-04
2068.098,406.2208,8.27E-04
2068.2,406.227,8.31E-04
2068.302,406.2316,8.35E-04
2068.398,406.2362,8.38E-04
2068.5,406.241,8.42E-04
2068.602,406.2464,8.46E-04
2068.698,406.2505,8.50E-04
2068.8,406.256,8.54E-04
2068.902,406.261,8.58E-04
2068.998,406.2653,8.62E-04
2069.1,406.2714,8.66E-04
2069.202,406.276,8.70E-04
2069.298,406.2819,8.74E-04
2069.4,406.286,8.78E-04
2069.502,406.2905,8.82E-04
2069.598,406.2964,8.86E-04
2069.7,406.3007,8.90E-04
2069.802,406.3066,8.94E-04
2069.898,406.3113,8.98E-04
2070,406.3154,9.02E-04
2070.102,406.3214,9.06E-04
2070.198,406.3249,9.10E-04
2070.3,406.3316,9.14E-04
2070.402,406.335,9.18E-04
2070.498,406.3414,9.22E-04
2070.6,406.3454,9.26E-04
2070.702,406.3513,9.30E-04
2070.798,406.3559,9.34E-04
2070.9,406.3607,9.38E-04
2071.002,406.3654,9.43E-04
2071.098,406.371,9.47E-04
2071.2,406.376,9.51E-04
2071.302,406.3809,9.55E-04
2071.398,406.3857,9.59E-04
2071.5,406.3907,9.63E-04
2071.602,406.3951,9.68E-04
2071.698,406.4005,9.72E-04
2071.8,406.4062,9.76E-04
2071.902,406.4108,9.80E-04
2071.998,406.4153,9.84E-04
2072.1,406.4208,9.89E-04
2072.202,406.4258,9.93E-04
2072.298,406.43,9.97E-04
2072.4,406.4359,0.001001694
2072.502,406.4408,0.001006105
2072.598,406.4453,0.001010266
2072.7,406.4502,0.001014698
2072.802,406.4556,0.001019148
2072.898,406.4609,0.001023354
2073,406.4653,0.001027844
2073.102,406.4706,0.00103235
2073.198,406.4753,0.001036603
2073.3,406.4806,0.001041127
2073.402,406.4862,0.001045661
2073.498,406.491,0.001049939
2073.6,406.4955,0.001054494
2073.702,406.5011,0.001059055
2073.798,406.505,0.001063352
2073.9,406.5101,0.001067927
2074.002,406.5158,0.001072514
2074.098,406.5213,0.001076848
2074.2,406.5253,0.001081464
2074.302,406.5307,0.001086094
2074.398,406.5353,0.001090467
2074.5,406.5403,0.001095129
2074.602,406.5463,0.001099804
2074.698,406.5507,0.001104213
2074.8,406.5553,0.001108902
2074.902,406.5611,0.001113597
2074.998,406.5654,0.001118028
2075.1,406.5712,0.001122748
2075.202,406.5753,0.001127478
2075.298,406.5806,0.001131938
2075.4,406.5856,0.001136689
2075.502,406.5896,0.001141453
2075.598,406.5954,0.001145945
2075.7,406.6003,0.001150727
2075.802,406.6054,0.001155518
2075.898,406.6107,0.001160036
2076,406.6153,0.001164845
2076.102,406.6203,0.001169663
2076.198,406.626,0.00117421
2076.3,406.6315,0.001179054
2076.402,406.6359,0.001183907
2076.498,406.6412,0.001188483
2076.6,406.6462,0.001193357
2076.702,406.6506,0.001198248
2076.798,406.6558,0.001202864
2076.9,406.6612,0.00120778
2077.002,406.6668,0.00121271
2077.098,406.671,0.001217358
2077.2,406.6758,0.001222305
2077.302,406.6805,0.001227262
2077.398,406.6862,0.001231935
2077.5,406.6901,0.001236909
2077.602,406.6952,0.001241889
2077.698,406.7,0.001246581
2077.8,406.7054,0.001251576
2077.902,406.7105,0.001256579
2077.998,406.7157,0.001261297
2078.1,406.721,0.001266318
2078.202,406.7245,0.001271349
2078.298,406.7304,0.001276092
2078.4,406.7355,0.00128114
2078.502,406.7394,0.001286202
2078.598,406.7452,0.001290977
2078.7,406.7506,0.001296064
2078.802,406.7558,0.001301167
2078.898,406.7605,0.001305986
2079,406.7658,0.001311118
2079.102,406.7707,0.001316264
2079.198,406.7753,0.001321115
2079.3,406.7803,0.001326278
2079.402,406.7855,0.001331454
2079.498,406.7905,0.001336338
2079.6,406.7956,0.00134154
2079.702,406.8008,0.00134675
2079.798,406.8059,0.001351667
2079.9,406.8108,0.001356907
2080.002,406.8155,0.001362163
2080.098,406.8217,0.001367122
2080.2,406.8252,0.0013724
2080.302,406.8306,0.001377691
2080.398,406.8364,0.001382687
2080.5,406.8404,0.001388007
