time,temperature,conversion
704.202,407.5806,0
704.298,407.596,1.21E-07
704.4,407.6112,3.31E-07
704.502,407.626,6.24E-07
704.598,407.6419,9.83E-07
704.7,407.6566,1.45E-06
704.802,407.6718,2.01E-06
704.898,407.6862,2.63E-06
705,407.7016,3.37E-06
705.102,407.7166,4.21E-06
705.198,407.7314,5.08E-06
705.3,407.7456,6.08E-06
705.402,407.7605,7.18E-06
705.498,407.7759,8.30E-06
705.6,407.7907,9.58E-06
705.702,407.8067,1.09E-05
705.798,407.821,1.23E-05
705.9,407.837,1.39E-05
706.002,407.8516,1.55E-05
706.098,407.8655,1.72E-05
706.2,407.8814,1.90E-05
706.302,407.896,2.10E-05
706.398,407.911,2.29E-05
706.5,407.9258,2.50E-05
706.602,407.9413,2.73E-05
706.698,407.9559,2.94E-05
706.8,407.9717,3.19E-05
706.902,407.9863,3.44E-05
706.998,408.0014,3.69E-05
707.1,408.0159,3.96E-05
707.202,408.0308,4.24E-05
707.298,408.0467,4.51E-05
707.4,408.062,4.82E-05
707.502,408.0763,5.13E-05
707.598,408.0912,5.43E-05
707.7,408.1069,5.76E-05
707.802,408.1221,6.10E-05
707.898,408.1361,6.43E-05
708,408.1513,6.79E-05
708.102,408.1665,7.16E-05
708.198,408.1813,7.52E-05
708.3,408.1966,7.91E-05
708.402,408.212,8.31E-05
708.498,408.2261,8.70E-05
708.6,408.2412,9.12E-05
708.702,408.256,9.55E-05
708.798,408.271,9.97E-05
708.9,408.2867,1.04E-04
709.002,408.3007,1.09E-04
709.098,408.3165,1.13E-04
709.2,408.3312,1.18E-04
709.302,408.3459,1.23E-04
709.398,408.3611,1.28E-04
709.5,408.3761,1.33E-04
709.602,408.3913,1.38E-04
709.698,408.4063,1.43E-04
709.8,408.4213,1.49E-04
709.902,408.4366,1.54E-04
709.998,408.4521,1.59E-04
710.1,408.4664,1.65E-04
710.202,408.4818,1.71E-04
710.298,408.4958,1.77E-04
710.4,408.5108,1.83E-04
710.502,408.5264,1.89E-04
710.598,408.5421,1.95E-04
710.7,408.5557,2.01E-04
710.802,408.5718,2.08E-04
710.898,408.587,2.14E-04
711,408.6018,2.21E-04
711.102,408.6158,2.27E-04
711.198,408.6302,2.34E-04
711.3,408.6474,2.41E-04
711.402,408.6606,2.48E-04
711.498,408.6763,2.55E-04
711.6,408.6908,2.62E-04
711.702,408.7057,2.70E-04
711.798,408.7202,2.77E-04
711.9,408.7356,2.84E-04
712.002,408.7514,2.92E-04
712.098,408.7664,3.00E-04
712.2,408.7812,3.07E-04
712.302,408.7964,3.16E-04
712.398,408.8117,3.23E-04
712.5,408.8258,3.32E-04
712.602,408.8411,3.40E-04
712.698,408.8563,3.48E-04
712.8,408.8713,3.56E-04
712.902,408.8852,3.65E-04
712.998,408.9013,3.73E-04
713.1,408.9156,3.82E-04
713.202,408.9307,3.91E-04
713.298,408.9453,4.00E-04
713.4,408.961,4.09E-04
713.502,408.976,4.18E-04
713.598,408.9906,4.27E-04
713.7,409.007,4.37E-04
713.802,409.0215,4.47E-04
713.898,409.0359,4.56E-04
714,409.0521,4.66E-04
714.102,409.0662,4.76E-04
714.198,409.0811,4.85E-04
714.3,409.096,4.95E-04
714.402,409.1113,5.05E-04
714.498,409.1265,5.15E-04
714.6,409.1404,5.26E-04
714.702,409.1569,5.36E-04
714.798,409.1712,5.46E-04
714.9,409.1852,5.57E-04
715.002,409.2016,5.68E-04
715.098,409.2155,5.79E-04
715.2,409.2312,5.90E-04
715.302,409.246,6.01E-04
715.398,409.2614,6.12E-04
715.5,409.2761,6.23E-04
715.602,409.2908,6.35E-04
715.698,409.3063,6.46E-04
715.8,409.3213,6.58E-04
715.902,409.3363,6.70E-04
715.998,409.3519,6.81E-04
716.1,409.3667,6.93E-04
716.202,409.3811,7.05E-04
716.298,409.396,7.17E-04
716.4,409.4115,7.29E-04
716.502,409.4264,7.42E-04
716.598,409.4414,7.54E-04
716.7,409.4564,7.66E-04
716.802,409.4716,7.79E-04
716.898,409.4858,7.91E-04
717,409.5008,8.04E-04
717.102,409.5168,8.17E-04
717.198,409.5319,8.30E-04
717.3,409.5462,8.43E-04
717.402,409.5615,8.57E-04
717.498,409.5767,8.69E-04
717.6,409.5926,8.83E-04
717.702,409.6065,8.97E-04
717.798,409.6227,9.10E-04
717.9,409.6366,9.24E-04
718.002,409.6514,9.38E-04
718.098,409.6675,9.51E-04
718.2,409.6828,9.65E-04
718.302,409.6972,9.79E-04
718.398,409.7121,9.93E-04
718.5,409.727,0.001007436
718.602,409.7419,0.001022001
718.698,409.7581,0.001035798
718.8,409.7719,0.001050551
718.902,409.7871,0.0010654
718.998,409.8012,0.001079463
719.1,409.8177,0.001094494
719.202,409.832,0.001109613
719.298,409.8476,0.001123929
719.4,409.862,0.001139228
719.502,409.8776,0.001154616
719.598,409.8925,0.001169184
719.7,409.9074,0.001184754
719.802,409.9222,0.001200417
719.898,409.9368,0.00121524
720,409.9526,0.001231076
720.102,409.9668,0.001247
720.198,409.9821,0.001262076
720.3,409.9974,0.001278186
720.402,410.0126,0.001294385
720.498,410.0271,0.001309716
720.6,410.0425,0.001326097
720.702,410.0577,0.00134257
720.798,410.0725,0.001358157
720.9,410.0877,0.001374806
721.002,410.1027,0.001391547
721.098,410.1176,0.001407389
721.2,410.1327,0.001424313
721.302,410.1479,0.001441325
721.398,410.1628,0.00145742
721.5,410.1768,0.001474608
721.602,410.1924,0.001491883
721.698,410.2074,0.001508222
721.8,410.2224,0.00152567
721.902,410.2378,0.00154321
721.998,410.253,0.001559801
722.1,410.2676,0.001577517
722.202,410.2829,0.001595326
722.298,410.298,0.001612172
722.4,410.3126,0.001630163
722.502,410.3272,0.001648243
722.598,410.343,0.001665342
722.7,410.3575,0.001683603
722.802,410.3732,0.001701963
722.898,410.3875,0.001719332
723,410.4029,0.001737876
723.102,410.4177,0.001756514
723.198,410.433,0.001774137
723.3,410.4481,0.001792951
723.402,410.4629,0.001811859
723.498,410.4784,0.001829744
723.6,410.4922,0.001848837
723.702,410.5071,0.00186802
723.798,410.5236,0.001886151
723.9,410.5379,0.001905501
724.002,410.5526,0.001924943
724.098,410.569,0.001943324
724.2,410.5821,0.001962939
724.302,410.5974,0.001982638
724.398,410.6121,0.002001257
724.5,410.6278,0.002021125
724.602,410.6431,0.002041077
724.698,410.6571,0.002059935
724.8,410.6722,0.00208006
724.902,410.6872,0.002100274
724.998,410.7031,0.002119382
725.1,410.7178,0.002139772
725.202,410.7322,0.002160251
725.298,410.7481,0.002179609
725.4,410.7621,0.002200258
725.502,410.7776,0.002220991
725.598,410.7931,0.002240584
725.7,410.8076,0.002261486
725.802,410.8224,0.002282475
725.898,410.8378,0.002302313
726,410.8534,0.002323478
726.102,410.8669,0.002344729
726.198,410.8825,0.00236481
726.3,410.8973,0.002386231
726.402,410.9118,0.002407739
726.498,410.9276,0.002428062
726.6,410.9422,0.002449742
726.702,410.9578,0.002471512
726.798,410.9727,0.002492082
726.9,410.9857,0.002514022
727.002,411.002,0.002536048
727.098,411.0174,0.002556859
727.2,411.032,0.002579058
727.302,411.0464,0.002601344
727.398,411.0625,0.002622395
727.5,411.0771,0.002644848
727.602,411.0926,0.00266739
727.698,411.1073,0.002688692
727.8,411.1223,0.002711413
727.902,411.137,0.002734223
727.998,411.1511,0.002755777
728.1,411.167,0.002778769
728.202,411.1822,0.002801851
728.298,411.1969,0.002823657
728.4,411.2112,0.002846915
728.502,411.2261,0.002870259
728.598,411.2417,0.002892309
728.7,411.257,0.002915826
728.802,411.2721,0.002939435
728.898,411.287,0.002961738
729,411.3021,0.00298552
729.102,411.3168,0.003009392
729.198,411.3331,0.003031942
729.3,411.3472,0.003055986
729.402,411.3619,0.003080117
729.498,411.3763,0.003102906
729.6,411.3925,0.0031272
729.702,411.4072,0.003151582
729.798,411.4229,0.003174611
729.9,411.4364,0.003199171
730.002,411.4518,0.003223821
730.098,411.4667,0.003247103
730.2,411.4831,0.003271931
730.302,411.4965,0.003296852
730.398,411.5122,0.00332039
730.5,411.5278,0.003345483
730.602,411.5413,0.003370663
730.698,411.556,0.003394445
730.8,411.572,0.003419804
730.902,411.5862,0.003445255
730.998,411.6015,0.003469298
731.1,411.6163,0.00349494
731.202,411.6312,0.003520674
731.298,411.647,0.003544978
731.4,411.6622,0.003570888
731.502,411.6765,0.003596885
731.598,411.6921,0.003621435
731.7,411.7067,0.003647608
731.802,411.722,0.003673867
731.898,411.7374,0.003698664
732,411.7523,0.003725099
732.102,411.7661,0.003751621
732.198,411.7816,0.003776662
732.3,411.7968,0.003803353
732.402,411.8117,0.003830134
732.498,411.8269,0.003855422
732.6,411.8415,0.003882376
732.702,411.8567,0.003909416
732.798,411.872,0.003934948
732.9,411.8866,0.003962167
733.002,411.9017,0.003989476
733.098,411.9168,0.00401526
733.2,411.9318,0.004042751
733.302,411.9472,0.004070336
733.398,411.9619,0.004096382
733.5,411.977,0.00412414
733.602,411.992,0.004151982
733.698,412.0066,0.004178264
733.8,412.0216,0.004206273
733.902,412.0364,0.004234368
733.998,412.0517,0.004260893
734.1,412.0664,0.004289164
734.202,412.0822,0.004317522
734.298,412.0973,0.004344294
734.4,412.1115,0.004372828
734.502,412.1258,0.004401448
734.598,412.1416,0.004428464
734.7,412.1575,0.004457254
734.802,412.1714,0.00448613
734.898,412.1864,0.004513388
735,412.2023,0.004542434
735.102,412.2177,0.004571566
735.198,412.2323,0.004599065
735.3,412.2471,0.004628374
735.402,412.2623,0.004657778
735.498,412.2772,0.004685537
735.6,412.2926,0.00471512
735.702,412.307,0.004744789
735.798,412.3223,0.004772793
735.9,412.3364,0.004802629
736.002,412.3521,0.004832549
736.098,412.3672,0.004860788
736.2,412.3828,0.004890881
736.302,412.3977,0.004921063
736.398,412.4123,0.004949549
736.5,412.4268,0.004979904
736.602,412.4423,0.005010345
736.698,412.4574,0.00503907
736.8,412.4721,0.005069672
736.902,412.4877,0.00510036
736.998,412.5022,0.005129324
737.1,412.5169,0.005160179
737.202,412.532,0.005191118
737.298,412.5474,0.005220317
737.4,412.5619,0.005251426
737.502,412.5777,0.005282624
737.598,412.5922,0.005312072
737.7,412.6083,0.00534345
737.802,412.6225,0.005374916
737.898,412.6371,0.005404612
738,412.6522,0.005436245
738.102,412.667,0.005467962
738.198,412.6826,0.005497893
738.3,412.6977,0.005529786
738.402,412.7138,0.005561771
738.498,412.7278,0.00559196
738.6,412.7416,0.005624127
738.702,412.7573,0.005656384
738.798,412.7724,0.005686823
738.9,412.7876,0.005719249
739.002,412.8019,0.005751762
739.098,412.8178,0.005782445
739.2,412.8322,0.005815136
739.302,412.8467,0.005847914
739.398,412.8618,0.005878841
739.5,412.8772,0.005911783
739.602,412.8924,0.005944809
739.698,412.9071,0.005975966
739.8,412.922,0.006009146
739.902,412.9372,0.006042404
739.998,412.9523,0.006073775
740.1,412.9675,0.006107179
740.202,412.9813,0.006140663
740.298,412.9968,0.006172252
740.4,413.013,0.006205888
740.502,413.0277,0.006239599
740.598,413.0433,0.006271396
740.7,413.0582,0.006305253
740.802,413.0725,0.006339184
740.898,413.0863,0.006371188
741,413.1017,0.006405269
741.102,413.1175,0.006439427
741.198,413.1323,0.006471647
741.3,413.1474,0.00650596
741.402,413.1626,0.006540353
741.498,413.1773,0.006572798
741.6,413.1922,0.006607349
741.702,413.2083,0.006641978
741.798,413.2235,0.006674638
741.9,413.2378,0.006709416
742.002,413.2531,0.006744271
742.098,413.2683,0.006777148
742.2,413.2823,0.006812158
742.302,413.2977,0.006847246
742.398,413.3131,0.006880338
742.5,413.3269,0.006915578
742.602,413.3429,0.006950901
742.698,413.3575,0.006984221
742.8,413.373,0.007019702
742.902,413.389,0.007055264
742.998,413.4029,0.007088805
743.1,413.4185,0.007124512
743.202,413.4333,0.007160295
743.298,413.4483,0.007194041
743.4,413.4629,0.007229969
743.502,413.4777,0.007265977
743.598,413.4928,0.007299942
743.7,413.5081,0.007336112
743.802,413.5228,0.007372365
743.898,413.5378,0.007406557
744,413.5526,0.007442965
744.102,413.5685,0.007479456
744.198,413.583,0.007513873
744.3,413.5978,0.007550516
744.402,413.6128,0.00758724
744.498,413.6279,0.007621878
744.6,413.6422,0.007658763
744.702,413.6585,0.007695731
744.798,413.6728,0.007730602
744.9,413.6879,0.007767734
745.002,413.7028,0.007804947
745.098,413.7175,0.007840045
745.2,413.7326,0.007877416
745.302,413.7475,0.007914867
745.398,413.7627,0.007950189
745.5,413.7774,0.007987802
745.602,413.7934,0.0080255
745.698,413.8082,0.008061061
745.8,413.8227,0.008098932
745.902,413.8377,0.008136893
745.998,413.8536,0.008172701
746.1,413.8689,0.008210832
746.202,413.8833,0.008249046
746.298,413.8983,0.008285089
746.4,413.9134,0.008323468
746.502,413.9276,0.008361926
746.598,413.9435,0.008398197
746.7,413.9581,0.008436813
746.802,413.9725,0.008475513
746.898,413.988,0.008512011
747,414.0038,0.008550863
747.102,414.0176,0.008589796
747.198,414.0328,0.008626512
747.3,414.0487,0.0086656
747.402,414.0635,0.008704771
747.498,414.0783,0.008741717
747.6,414.0933,0.008781058
747.702,414.1078,0.008820486
747.798,414.1224,0.008857676
747.9,414.1381,0.008897279
748.002,414.1523,0.008936969
748.098,414.1683,0.008974401
748.2,414.1831,0.009014248
748.302,414.1988,0.009054176
748.398,414.2132,0.00909183
748.5,414.2293,0.009131913
748.602,414.2434,0.009172079
748.698,414.2591,0.009209963
748.8,414.2739,0.009250299
748.902,414.289,0.009290722
748.998,414.303,0.009328844
749.1,414.3185,0.009369431
749.202,414.3337,0.009410104
749.298,414.3493,0.009448462
749.4,414.3644,0.009489293
749.502,414.3788,0.009530198
749.598,414.3939,0.009568769
749.7,414.4089,0.009609833
749.802,414.4233,0.009650983
749.898,414.4386,0.009689789
750,414.4543,0.009731103
750.102,414.4684,0.009772504
750.198,414.484,0.009811546
750.3,414.4985,0.00985311
750.402,414.5138,0.009894761
750.498,414.53,0.009934041
750.6,414.5437,0.009975859
750.702,414.5594,0.010017754
750.798,414.5741,0.010057259
750.9,414.5882,0.010099318
751.002,414.6043,0.010141464
751.098,414.6175,0.01018121
751.2,414.6337,0.010223525
751.302,414.6484,0.010265924
751.398,414.6638,0.010305906
751.5,414.6791,0.010348469
751.602,414.6942,0.010391112
751.698,414.708,0.010431324
751.8,414.723,0.010474137
751.902,414.7391,0.010517043
751.998,414.7531,0.01055751
752.1,414.7696,0.010600595
752.202,414.7843,0.010643765
752.298,414.7991,0.010684474
752.4,414.8143,0.010727806
752.502,414.8295,0.010771218
752.598,414.8441,0.010812154
752.7,414.8589,0.01085573
752.802,414.874,0.01089939
752.898,414.8897,0.010940561
753,414.9037,0.010984391
753.102,414.9198,0.011028307
753.198,414.9334,0.011069719
753.3,414.9488,0.011113799
753.402,414.9637,0.01115796
753.498,414.9794,0.011199602
753.6,414.9942,0.011243932
753.702,415.0085,0.011288346
753.798,415.0238,0.011330227
753.9,415.0385,0.011374811
754.002,415.0537,0.011419475
754.098,415.0696,0.011461589
754.2,415.0842,0.011506417
754.302,415.0992,0.011551332
754.398,415.1137,0.01159369
754.5,415.1289,0.011638786
754.602,415.1437,0.011683972
754.698,415.1586,0.011726579
754.8,415.1734,0.011771932
754.902,415.1887,0.011817368
754.998,415.2038,0.011860214
755.1,415.2188,0.011905829
755.202,415.234,0.01195154
755.298,415.2498,0.011994647
755.4,415.2638,0.012040536
755.502,415.2793,0.012086518
755.598,415.2942,0.01212988
755.7,415.3098,0.012176043
755.802,415.3239,0.012222296
755.898,415.3385,0.012265911
756,415.3542,0.012312343
756.102,415.3687,0.01235887
756.198,415.3843,0.012402746
756.3,415.3983,0.012449452
756.402,415.4134,0.01249625
756.498,415.4288,0.012540379
756.6,415.4444,0.01258735
756.702,415.4599,0.012634411
756.798,415.4739,0.012678786
756.9,415.4898,0.012726023
757.002,415.5034,0.012773354
757.098,415.5187,0.012817991
757.2,415.5339,0.012865504
757.302,415.5483,0.012913108
757.398,415.5638,0.012957996
757.5,415.5784,0.013005778
757.602,415.5943,0.013053647
757.698,415.609,0.01309878
757.8,415.6241,0.013146818
757.902,415.6385,0.013194943
757.998,415.6542,0.013240317
758.1,415.6681,0.013288618
758.202,415.6833,0.013337011
758.298,415.699,0.01338264
758.4,415.7134,0.013431212
758.502,415.7288,0.013479874
758.598,415.7437,0.013525755
758.7,415.7585,0.013574596
758.802,415.7741,0.013623531
758.898,415.789,0.01366968
759,415.8031,0.013718803
759.102,415.8187,0.013768013
759.198,415.8334,0.013814411
759.3,415.8481,0.013863797
759.402,415.8643,0.013913272
759.498,415.8791,0.013959925
759.6,415.8936,0.014009591
759.702,415.9081,0.014059353
759.798,415.9237,0.01410627
759.9,415.9384,0.014156207
760.002,415.9538,0.014206234
760.098,415.9684,0.014253403
760.2,415.9834,0.014303621
760.302,415.998,0.01435394
760.398,416.0138,0.014401387
760.5,416.0287,0.014451894
760.602,416.044,0.014502499
760.698,416.0588,0.014550213
760.8,416.0749,0.014600994
760.902,416.0881,0.014651864
760.998,416.1035,0.014699827
761.1,416.1192,0.01475088
761.202,416.1337,0.014802027
761.298,416.1484,0.014850254
761.4,416.1638,0.01490159
761.502,416.1799,0.014953024
761.598,416.1942,0.01500152
761.7,416.2089,0.015053142
761.802,416.2238,0.015104862
761.898,416.2402,0.015153628
762,416.2541,0.015205536
762.102,416.2694,0.015257539
762.198,416.2852,0.015306571
762.3,416.2994,0.015358762
762.402,416.3144,0.015411046
762.498,416.3295,0.015460339
762.6,416.3449,0.015512804
762.702,416.3599,0.015565359
762.798,416.375,0.015614905
762.9,416.3891,0.015667638
763.002,416.4042,0.015720461
763.098,416.4197,0.015770257
763.2,416.4347,0.015823253
763.302,416.4493,0.015876341
763.398,416.4644,0.015926392
763.5,416.4793,0.015979662
763.602,416.4939,0.016033025
763.698,416.5093,0.016083331
763.8,416.525,0.016136869
763.902,416.5393,0.0161905
763.998,416.5544,0.016241061
764.1,416.5696,0.016294877
764.202,416.5846,0.016348788
764.298,416.5999,0.016399613
764.4,416.6133,0.016453703
764.502,416.6291,0.016507885
764.598,416.6437,0.016558972
764.7,416.6594,0.016613348
764.802,416.6736,0.016667822
764.898,416.6889,0.016719183
765,416.7047,0.016773848
765.102,416.719,0.016828603
765.198,416.7343,0.01688022
765.3,416.7493,0.016935153
765.402,416.7645,0.016990182
765.498,416.7795,0.017042062
765.6,416.7941,0.017097276
765.702,416.809,0.017152585
765.798,416.8239,0.017204726
765.9,416.8397,0.017260214
766.002,416.8547,0.017315791
766.098,416.8691,0.017368185
766.2,416.8839,0.017423953
766.302,416.8991,0.01747982
766.398,416.9143,0.017532485
766.5,416.93,0.017588537
766.602,416.9447,0.017644684
766.698,416.9595,0.01769761
766.8,416.9746,0.01775393
766.902,416.9895,0.017810339
766.998,417.0052,0.017863513
767.1,417.02,0.017920101
767.202,417.0348,0.017976784
767.298,417.0497,0.018030218
767.4,417.0649,0.018087087
767.502,417.0788,0.01814405
767.598,417.0949,0.018197748
767.7,417.1092,0.018254894
767.802,417.1242,0.018312132
767.898,417.1393,0.018366085
768,417.1544,0.018423499
768.102,417.1694,0.018481002
768.198,417.1844,0.018535202
768.3,417.2002,0.018592878
768.402,417.2146,0.018650647
768.498,417.2289,0.018705102
768.6,417.2445,0.018763053
768.702,417.2588,0.018821098
768.798,417.2737,0.018875818
768.9,417.2889,0.018934048
769.002,417.3042,0.018992368
769.098,417.3195,0.019047337
769.2,417.3341,0.01910583
769.302,417.3496,0.019164415
769.398,417.3654,0.01921964
769.5,417.3801,0.01927841
769.602,417.395,0.019337278
769.698,417.4095,0.019392775
769.8,417.4251,0.019451837
769.902,417.4397,0.019510994
769.998,417.4553,0.01956676
770.1,417.4711,0.019626106
770.202,417.4842,0.01968554
770.298,417.4998,0.019741562
770.4,417.5141,0.019801178
770.502,417.5293,0.019860887
770.598,417.5445,0.019917167
770.7,417.5595,0.019977052
770.802,417.5744,0.020037023
770.898,417.59,0.020093552
771,417.6042,0.020153708
771.102,417.6195,0.020213954
771.198,417.6344,0.020270738
771.3,417.6494,0.020331163
771.402,417.6645,0.020391677
771.498,417.68,0.020448713
771.6,417.6947,0.020509406
771.702,417.7102,0.020570191
771.798,417.7238,0.020627489
771.9,417.7403,0.020688462
772.002,417.7549,0.020749527
772.098,417.7698,0.020807086
772.2,417.7845,0.020868333
772.302,417.7996,0.02092967
772.398,417.8149,0.020987481
772.5,417.8293,0.021048994
772.602,417.845,0.021110599
772.698,417.86,0.021168674
772.8,417.8747,0.021230475
772.902,417.89,0.021292372
772.998,417.9056,0.021350717
773.1,417.9193,0.021412798
773.202,417.9353,0.021474973
773.298,417.9507,0.021533575
773.4,417.9648,0.021595934
773.502,417.9805,0.021658389
773.598,417.9953,0.021717258
773.7,418.0107,0.021779903
773.802,418.0254,0.021842647
773.898,418.0416,0.021901788
774,418.0561,0.021964713
774.102,418.0698,0.022027725
774.198,418.0856,0.022087111
774.3,418.1009,0.022150296
